#Time - Plot 0	Amplitude - Plot 0	Time - Plot 1	Amplitude - Plot 1	
#Periodo 0.005 sec, ampiezza in ingresso 5 V, frequenza 750 Hz
0	-1.09863	0	0.0976562	
1	-0.893555	1	0.0634766	
2	-0.673828	2	0.0292969	
3	-0.454102	3	0.0146484	
4	-0.214844	4	0	
5	-0.00488281	5	0	
6	0.239258	6	0.0146484	
7	0.458984	7	0.0292969	
8	0.688477	8	0.0634766	
9	0.90332	9	0.0976562	
10	1.11328	10	0.151367	
11	1.31348	11	0.195312	
12	1.51367	12	0.253906	
13	1.6748	13	0.3125	
14	1.8457	14	0.371094	
15	1.97754	15	0.424805	
16	2.11426	16	0.473633	
17	2.22656	17	0.517578	
18	2.30957	18	0.551758	
19	2.3877	19	0.581055	
20	2.42676	20	0.600586	
21	2.46582	21	0.610352	
22	2.46582	22	0.605469	
23	2.44629	23	0.59082	
24	2.40723	24	0.571289	
25	2.34863	25	0.532227	
26	2.27051	26	0.493164	
27	2.17285	27	0.449219	
28	2.0459	28	0.390625	
29	1.89941	29	0.341797	
30	1.74805	30	0.27832	
31	1.58203	31	0.224609	
32	1.40137	32	0.170898	
33	1.20605	33	0.117187	
34	0.996094	34	0.0830078	
35	0.786133	35	0.0439453	
36	0.571289	36	0.0195312	
37	0.327148	37	0.00488281	
38	0.112305	38	0	
39	-0.126953	39	0.00488281	
40	-0.351562	40	0.0244141	
41	-0.581055	41	0.0439453	
42	-0.805664	42	0.0830078	
43	-1.02051	43	0.12207	
44	-1.21582	44	0.170898	
45	-1.40625	45	0.229492	
46	-1.60156	46	0.283203	
47	-1.75781	47	0.336914	
48	-1.90918	48	0.385742	
49	-2.04102	49	0.444336	
50	-2.1582	50	0.483398	
51	-2.25586	51	0.527344	
52	-2.33398	52	0.551758	
53	-2.39258	53	0.581055	
54	-2.41211	54	0.59082	
55	-2.43164	55	0.59082	
56	-2.41699	56	0.585937	
57	-2.39258	57	0.561523	
58	-2.3291	58	0.527344	
59	-2.25586	59	0.493164	
60	-2.16309	60	0.449219	
61	-2.06055	61	0.395508	
62	-1.92383	62	0.341797	
63	-1.77246	63	0.288086	
64	-1.61133	64	0.229492	
65	-1.43066	65	0.180664	
66	-1.23535	66	0.131836	
67	-1.03027	67	0.0878906	
68	-0.830078	68	0.0488281	
69	-0.595703	69	0.0244141	
70	-0.371094	70	0.00976562	
71	-0.15625	71	0	
72	0.0830078	72	0.00488281	
73	0.322266	73	0.0195312	
74	0.537109	74	0.0439453	
75	0.756836	75	0.0732422	
76	0.976562	76	0.117187	
77	1.19141	77	0.166016	
78	1.38184	78	0.219727	
79	1.57715	79	0.273437	
80	1.72852	80	0.336914	
81	1.89941	81	0.380859	
82	2.03613	82	0.439453	
83	2.15332	83	0.488281	
84	2.25098	84	0.527344	
85	2.34375	85	0.561523	
86	2.40234	86	0.59082	
87	2.44141	87	0.610352	
88	2.46582	88	0.610352	
89	2.46582	89	0.595703	
90	2.44629	90	0.585937	
91	2.3877	91	0.561523	
92	2.3291	92	0.527344	
93	2.23145	93	0.478516	
94	2.13379	94	0.424805	
95	1.99707	95	0.375977	
96	1.86523	96	0.317383	
97	1.7041	97	0.263672	
98	1.52344	98	0.209961	
99	1.34277	99	0.151367	
100	1.13281	100	0.107422	
101	0.922852	101	0.0683594	
102	0.708008	102	0.0390625	
103	0.488281	103	0.0146484	
104	0.249023	104	0	
105	0.0341797	105	0	
106	-0.209961	106	0.00976562	
107	-0.424805	107	0.0292969	
108	-0.654297	108	0.0585937	
109	-0.874023	109	0.0927734	
110	-1.0791	110	0.141602	
111	-1.2793	111	0.19043	
112	-1.48438	112	0.244141	
113	-1.64063	113	0.302734	
114	-1.81152	114	0.356445	
115	-1.94336	115	0.410156	
116	-2.08496	116	0.463867	
117	-2.1875	117	0.50293	
118	-2.27051	118	0.537109	
119	-2.35352	119	0.566406	
120	-2.3877	120	0.581055	
121	-2.42676	121	0.59082	
122	-2.43164	122	0.59082	
123	-2.41211	123	0.571289	
124	-2.37305	124	0.556641	
125	-2.30957	125	0.517578	
126	-2.23633	126	0.478516	
127	-2.13867	127	0.43457	
128	-2.0166	128	0.380859	
129	-1.87012	129	0.327148	
130	-1.71875	130	0.268555	
131	-1.54785	131	0.214844	
132	-1.36719	132	0.161133	
133	-1.17188	133	0.112305	
134	-0.961914	134	0.0732422	
135	-0.751953	135	0.0390625	
136	-0.537109	136	0.0146484	
137	-0.292969	137	0	
138	-0.078125	138	0	
139	0.161133	139	0.00976562	
140	0.385742	140	0.0244141	
141	0.615234	141	0.0537109	
142	0.839844	142	0.0878906	
143	1.05469	143	0.131836	
144	1.25	144	0.180664	
145	1.44043	145	0.239258	
146	1.63086	146	0.292969	
147	1.79688	147	0.34668	
148	1.94336	148	0.400391	
149	2.0752	149	0.458984	
150	2.19238	150	0.50293	
151	2.29004	151	0.541992	
152	2.36816	152	0.571289	
153	2.42676	153	0.600586	
154	2.44629	154	0.610352	
155	2.46094	155	0.610352	
156	2.45117	156	0.600586	
157	2.42676	157	0.581055	
158	2.36816	158	0.546875	
159	2.29004	159	0.507812	
160	2.19238	160	0.463867	
161	2.08984	161	0.410156	
162	1.95801	162	0.356445	
163	1.80664	163	0.297852	
164	1.64063	164	0.244141	
165	1.46484	165	0.19043	
166	1.26465	166	0.141602	
167	1.06445	167	0.0927734	
168	0.864258	168	0.0585937	
169	0.634766	169	0.0292969	
170	0.405273	170	0.00976562	
171	0.19043	171	0	
172	-0.0488281	172	0.00488281	
173	-0.288086	173	0.0146484	
174	-0.50293	174	0.0341797	
175	-0.722656	175	0.0683594	
176	-0.942383	176	0.107422	
177	-1.15723	177	0.15625	
178	-1.34766	178	0.209961	
179	-1.53809	179	0.263672	
180	-1.69922	180	0.322266	
181	-1.86523	181	0.371094	
182	-2.00195	182	0.424805	
183	-2.11914	183	0.473633	
184	-2.2168	184	0.507812	
185	-2.31445	185	0.546875	
186	-2.37305	186	0.571289	
187	-2.41211	187	0.59082	
188	-2.42676	188	0.59082	
189	-2.43164	189	0.581055	
190	-2.41211	190	0.571289	
191	-2.35352	191	0.546875	
192	-2.29004	192	0.512695	
193	-2.19727	193	0.463867	
194	-2.09961	194	0.410156	
195	-1.96289	195	0.366211	
196	-1.83105	196	0.307617	
197	-1.6748	197	0.249023	
198	-1.48926	198	0.200195	
199	-1.31348	199	0.141602	
200	-1.09863	200	0.102539	
201	-0.888672	201	0.0585937	
202	-0.673828	202	0.0292969	
203	-0.454102	203	0.0146484	
204	-0.214844	204	0	
205	0	205	0	
206	0.244141	206	0.00976562	
207	0.454102	207	0.0341797	
208	0.688477	208	0.0634766	
209	0.90332	209	0.102539	
210	1.11328	210	0.151367	
211	1.31348	211	0.195312	
212	1.51855	212	0.253906	
213	1.6748	213	0.3125	
214	1.8457	214	0.371094	
215	1.97754	215	0.424805	
216	2.11426	216	0.473633	
217	2.22656	217	0.517578	
218	2.30957	218	0.556641	
219	2.3877	219	0.581055	
220	2.42676	220	0.600586	
221	2.46582	221	0.610352	
222	2.46582	222	0.610352	
223	2.44629	223	0.59082	
224	2.40723	224	0.571289	
225	2.34863	225	0.537109	
226	2.27051	226	0.493164	
227	2.17285	227	0.449219	
228	2.0459	228	0.395508	
229	1.9043	229	0.336914	
230	1.74805	230	0.27832	
231	1.57715	231	0.224609	
232	1.40137	232	0.170898	
233	1.20605	233	0.117187	
234	0.996094	234	0.0830078	
235	0.786133	235	0.0439453	
236	0.566406	236	0.0195312	
237	0.327148	237	0.00488281	
238	0.112305	238	0	
239	-0.131836	239	0.00488281	
240	-0.351562	240	0.0195312	
241	-0.581055	241	0.0488281	
242	-0.805664	242	0.0830078	
243	-1.02051	243	0.12207	
244	-1.2207	244	0.170898	
245	-1.41113	245	0.224609	
246	-1.60156	246	0.283203	
247	-1.7627	247	0.336914	
248	-1.9043	248	0.390625	
249	-2.0459	249	0.439453	
