Time - Plot 0	Amplitude - Plot 0	Time - Plot 1	Amplitude - Plot 1	
0	0.234375	0	2.43652	
1	0.34668	1	2.39746	
2	0.429687	2	2.30713	
3	0.500488	3	2.1875	
4	0.532227	4	2.03613	
5	0.539551	5	1.84326	
6	0.505371	6	1.6333	
7	0.446777	7	1.38184	
8	0.371094	8	1.11572	
9	0.263672	9	0.844727	
10	0.13916	10	0.541992	
11	0.00976562	11	0.251465	
12	-0.126953	12	-0.0708008	
13	-0.253906	13	-0.358887	
14	-0.358887	14	-0.664062	
15	-0.446777	15	-0.95459	
16	-0.50293	16	-1.22559	
17	-0.529785	17	-1.47461	
18	-0.532227	18	-1.70654	
19	-0.490723	19	-1.91406	
20	-0.424805	20	-2.08008	
21	-0.334473	21	-2.22168	
22	-0.224609	22	-2.32178	
23	-0.102539	23	-2.39502	
24	0.0292969	24	-2.41699	
25	0.153809	25	-2.3999	
26	0.266113	26	-2.36084	
27	0.366211	27	-2.26807	
28	0.43457	28	-2.15088	
29	0.476074	29	-1.99951	
30	0.48584	30	-1.80664	
31	0.461426	31	-1.59424	
32	0.415039	32	-1.34277	
33	0.339355	33	-1.08154	
34	0.234375	34	-0.805664	
35	0.126953	35	-0.507812	
36	0	36	-0.212402	
37	-0.12207	37	0.10498	
38	-0.244141	38	0.400391	
39	-0.339355	39	0.698242	
40	-0.407715	40	0.993652	
41	-0.466309	41	1.26465	
42	-0.488281	42	1.51367	
43	-0.46875	43	1.74316	
44	-0.432129	44	1.95313	
45	-0.354004	45	2.12158	
46	-0.268555	46	2.26074	
47	-0.146484	47	2.3584	
48	-0.0244141	48	2.43652	
49	0.109863	49	2.46094	
50	0.227051	50	2.43896	
51	0.341797	51	2.3999	
52	0.43457	52	2.30713	
53	0.50293	53	2.1875	
54	0.537109	54	2.03369	
55	0.541992	55	1.8457	
56	0.515137	56	1.63086	
57	0.456543	57	1.38184	
58	0.36377	58	1.11816	
59	0.26123	59	0.844727	
60	0.136719	60	0.541992	
61	0	61	0.249023	
62	-0.129395	62	-0.0683594	
63	-0.253906	63	-0.36377	
64	-0.358887	64	-0.661621	
65	-0.45166	65	-0.95459	
66	-0.505371	66	-1.22559	
67	-0.534668	67	-1.47705	
68	-0.52002	68	-1.7041	
69	-0.493164	69	-1.91406	
70	-0.429687	70	-2.08008	
71	-0.332031	71	-2.22412	
72	-0.217285	72	-2.31934	
73	-0.0976562	73	-2.39502	
74	0.0292969	74	-2.41699	
75	0.15625	75	-2.3999	
76	0.266113	76	-2.35596	
77	0.361328	77	-2.26807	
78	0.437012	78	-2.15088	
79	0.473633	79	-1.99707	
80	0.488281	80	-1.8042	
81	0.46875	81	-1.5918	
82	0.415039	82	-1.34521	
83	0.339355	83	-1.08154	
84	0.236816	84	-0.808105	
85	0.117187	85	-0.507812	
86	-0.00244141	86	-0.212402	
87	-0.126953	87	0.107422	
88	-0.246582	88	0.397949	
89	-0.336914	89	0.700684	
90	-0.415039	90	0.993652	
91	-0.471191	91	1.26465	
92	-0.48584	92	1.51367	
93	-0.478516	93	1.74316	
94	-0.429687	94	1.95557	
95	-0.358887	95	2.11914	
96	-0.266113	96	2.26074	
97	-0.151367	97	2.3584	
98	-0.0292969	98	2.43652	
99	0.102539	99	2.4585	
100	0.234375	100	2.43896	
101	0.336914	101	2.3999	
102	0.43457	102	2.30713	
103	0.498047	103	2.1875	
104	0.539551	104	2.03613	
105	0.544434	105	1.84326	
106	0.52002	106	1.6333	
107	0.456543	107	1.38428	
108	0.375977	108	1.11816	
109	0.258789	109	0.844727	
110	0.141602	110	0.544434	
111	0.00488281	111	0.249023	
112	-0.129395	112	-0.0683594	
113	-0.249023	113	-0.361328	
114	-0.358887	114	-0.661621	
115	-0.446777	115	-0.95459	
116	-0.500488	116	-1.22559	
117	-0.532227	117	-1.47217	
118	-0.537109	118	-1.7041	
119	-0.483398	119	-1.9165	
120	-0.424805	120	-2.08252	
121	-0.332031	121	-2.22168	
122	-0.217285	122	-2.31934	
123	-0.0878906	123	-2.39746	
124	0.0341797	124	-2.41699	
125	0.153809	125	-2.39502	
126	0.268555	126	-2.3584	
127	0.371094	127	-2.26807	
128	0.437012	128	-2.15088	
129	0.473633	129	-1.99707	
130	0.48584	130	-1.80176	
131	0.463867	131	-1.59424	
132	0.410156	132	-1.34521	
133	0.334473	133	-1.0791	
134	0.241699	134	-0.803223	
135	0.12207	135	-0.505371	
136	0	136	-0.212402	
137	-0.119629	137	0.107422	
138	-0.236816	138	0.400391	
139	-0.336914	139	0.700684	
140	-0.415039	140	0.993652	
141	-0.458984	141	1.26465	
142	-0.488281	142	1.51611	
143	-0.473633	143	1.74561	
144	-0.432129	144	1.95313	
145	-0.361328	145	2.11914	
146	-0.26123	146	2.26318	
147	-0.151367	147	2.36084	
148	-0.0219727	148	2.43408	
149	0.107422	149	2.4585	
150	0.236816	150	2.43896	
151	0.336914	151	2.40234	
152	0.439453	152	2.30957	
153	0.500488	153	2.18994	
154	0.539551	154	2.03857	
155	0.544434	155	1.84326	
156	0.52002	156	1.6333	
157	0.458984	157	1.38428	
158	0.361328	158	1.11816	
159	0.263672	159	0.844727	
160	0.13916	160	0.544434	
161	0.00244141	161	0.251465	
162	-0.129395	162	-0.0708008	
163	-0.258789	163	-0.361328	
164	-0.358887	164	-0.664062	
165	-0.446777	165	-0.95459	
166	-0.505371	166	-1.22314	
167	-0.527344	167	-1.47461	
168	-0.529785	168	-1.70654	
169	-0.50293	169	-1.9165	
170	-0.429687	170	-2.08008	
171	-0.332031	171	-2.22168	
172	-0.229492	172	-2.32178	
173	-0.0952148	173	-2.39502	
174	0.0317383	174	-2.41455	
175	0.151367	175	-2.39746	
176	0.266113	176	-2.3584	
177	0.356445	177	-2.26807	
178	0.437012	178	-2.14844	
179	0.476074	179	-1.99707	
180	0.483398	180	-1.8042	
181	0.471191	181	-1.5918	
182	0.41748	182	-1.34277	
183	0.339355	183	-1.08154	
184	0.239258	184	-0.808105	
185	0.119629	185	-0.505371	
186	-0.00732422	186	-0.209961	
187	-0.119629	187	0.109863	
188	-0.236816	188	0.400391	
189	-0.32959	189	0.703125	
190	-0.415039	190	0.993652	
191	-0.46875	191	1.26465	
192	-0.483398	192	1.51367	
193	-0.473633	193	1.74316	
194	-0.432129	194	1.95313	
195	-0.361328	195	2.12158	
196	-0.266113	196	2.26318	
197	-0.15625	197	2.36084	
198	-0.0219727	198	2.43652	
199	0.102539	199	2.45605	
200	0.227051	200	2.43652	
201	0.339355	201	2.3999	
202	0.429687	202	2.30957	
203	0.498047	203	2.1875	
204	0.544434	204	2.03369	
205	0.541992	205	1.84326	
206	0.515137	206	1.6333	
207	0.456543	207	1.38672	
208	0.371094	208	1.11816	
209	0.26123	209	0.842285	
210	0.134277	210	0.544434	
211	0	211	0.251465	
212	-0.134277	212	-0.0683594	
213	-0.256348	213	-0.361328	
214	-0.358887	214	-0.664062	
215	-0.45166	215	-0.95459	
216	-0.50293	216	-1.22559	
217	-0.537109	217	-1.47217	
218	-0.527344	218	-1.70654	
219	-0.490723	219	-1.91406	
220	-0.422363	220	-2.08252	
221	-0.32959	221	-2.22168	
222	-0.217285	222	-2.31934	
223	-0.100098	223	-2.39258	
224	0.0341797	224	-2.41943	
225	0.146484	225	-2.39746	
226	0.266113	226	-2.3584	
227	0.361328	227	-2.26563	
228	0.43457	228	-2.15088	
229	0.478516	229	-1.99463	
230	0.488281	230	-1.80664	
231	0.471191	231	-1.5918	
232	0.41748	232	-1.34277	
233	0.34668	233	-1.0791	
234	0.239258	234	-0.805664	
235	0.119629	235	-0.505371	
236	0.00244141	236	-0.209961	
237	-0.12207	237	0.107422	
238	-0.239258	238	0.400391	
239	-0.332031	239	0.703125	
240	-0.407715	240	0.993652	
241	-0.461426	241	1.26465	
242	-0.48584	242	1.51611	
243	-0.476074	243	1.74561	
244	-0.429687	244	1.95557	
245	-0.351562	245	2.12158	
246	-0.266113	246	2.26074	
247	-0.146484	247	2.36084	
248	-0.0292969	248	2.43652	
249	0.10498	249	2.4585	
