# circuito per eliminare offset: 800Hz, freq campi 100kHz
Time - Plot 0	Amplitude - Plot 0	Time - Plot 1	Amplitude - Plot 1	
0	0.993652	0	-1.40869	
1	0.991211	1	-1.51123	
2	0.974121	2	-1.5918	
3	0.961914	3	-1.68945	
4	0.947266	4	-1.77002	
5	0.905762	5	-1.85059	
6	0.844727	6	-1.92383	
7	0.79834	7	-1.98975	
8	0.744629	8	-2.05078	
9	0.661621	9	-2.11182	
10	0.585937	10	-2.16309	
11	0.500488	11	-2.21436	
12	0.424805	12	-2.25586	
13	0.322266	13	-2.28027	
14	0.229492	14	-2.32422	
15	0.126953	15	-2.34863	
16	0.0317383	16	-2.36572	
17	-0.0537109	17	-2.37549	
18	-0.170898	18	-2.38037	
19	-0.263672	19	-2.38525	
20	-0.341797	20	-2.37061	
21	-0.45166	21	-2.35596	
22	-0.544434	22	-2.34131	
23	-0.612793	23	-2.32666	
24	-0.700684	24	-2.29492	
25	-0.766602	25	-2.2583	
26	-0.822754	26	-2.20947	
27	-0.88623	27	-2.16064	
28	-0.932617	28	-2.12402	
29	-0.95459	29	-2.05322	
30	-0.974121	30	-1.99707	
31	-1.00342	31	-1.92627	
32	-0.998535	32	-1.85547	
33	-0.98877	33	-1.76514	
34	-0.976562	34	-1.69434	
35	-0.942383	35	-1.60156	
36	-0.913086	36	-1.521	
37	-0.871582	37	-1.41846	
38	-0.817871	38	-1.32568	
39	-0.749512	39	-1.21582	
40	-0.686035	40	-1.12061	
41	-0.60791	41	-1.00586	
42	-0.524902	42	-0.900879	
43	-0.439453	43	-0.788574	
44	-0.349121	44	-0.67627	
45	-0.249023	45	-0.561523	
46	-0.151367	46	-0.437012	
47	-0.0488281	47	-0.310059	
48	0.0512695	48	-0.192871	
49	0.151367	49	-0.0805664	
50	0.251465	50	0.0366211	
51	0.351562	51	0.15625	
52	0.437012	52	0.285645	
53	0.529785	53	0.412598	
54	0.610352	54	0.527344	
55	0.686035	55	0.644531	
56	0.754395	56	0.761719	
57	0.820312	57	0.866699	
58	0.871582	58	0.986328	
59	0.915527	59	1.08643	
60	0.944824	60	1.20361	
61	0.979004	61	1.30127	
62	0.986328	62	1.40625	
63	0.998535	63	1.49414	
64	1.00098	64	1.5918	
65	0.991211	65	1.6748	
66	0.97168	66	1.77002	
67	0.9375	67	1.85059	
68	0.900879	68	1.92139	
69	0.83252	69	1.99219	
70	0.786133	70	2.06787	
71	0.712891	71	2.11182	
72	0.620117	72	2.17529	
73	0.544434	73	2.22656	
74	0.476074	74	2.27539	
75	0.380859	75	2.31934	
76	0.270996	76	2.34375	
77	0.19043	77	2.36816	
78	0.100098	78	2.39258	
79	-0.0366211	79	2.41211	
80	-0.114746	80	2.41943	
81	-0.224609	81	2.42432	
82	-0.310059	82	2.42432	
83	-0.424805	83	2.41455	
84	-0.500488	84	2.3999	
85	-0.595703	85	2.36816	
86	-0.664062	86	2.35352	
87	-0.737305	87	2.31934	
88	-0.805664	88	2.27539	
89	-0.866699	89	2.23389	
90	-0.913086	90	2.18018	
91	-0.952148	91	2.12646	
92	-0.97168	92	2.0752	
93	-0.991211	93	2.00439	
94	-1.00586	94	1.93115	
95	-1.00098	95	1.86035	
96	-0.996094	96	1.76758	
97	-0.969238	97	1.69678	
98	-0.944824	98	1.59912	
99	-0.900879	99	1.50146	
100	-0.859375	100	1.40625	
101	-0.79834	101	1.31104	
102	-0.72998	102	1.20117	
103	-0.654297	103	1.10352	
104	-0.578613	104	0.983887	
105	-0.490723	105	0.883789	
106	-0.402832	106	0.771484	
107	-0.307617	107	0.656738	
108	-0.212402	108	0.529785	
109	-0.119629	109	0.415039	
110	-0.00976562	110	0.288086	
111	0.0878906	111	0.175781	
112	0.187988	112	0.0610352	
113	0.283203	113	-0.0585937	
114	0.385742	114	-0.187988	
115	0.476074	115	-0.300293	
116	0.559082	116	-0.429687	
117	0.637207	117	-0.549316	
118	0.710449	118	-0.664062	
119	0.778809	119	-0.766602	
120	0.83252	120	-0.888672	
121	0.891113	121	-0.991211	
122	0.932617	122	-1.10596	
123	0.959473	123	-1.20361	
124	0.983887	124	-1.30371	
125	0.98877	125	-1.40869	
126	0.998535	126	-1.51123	
127	0.976562	127	-1.5918	
128	0.964355	128	-1.68945	
129	0.952148	129	-1.77002	
130	0.908203	130	-1.85059	
131	0.849609	131	-1.92383	
132	0.79834	132	-1.98975	
133	0.74707	133	-2.05078	
134	0.656738	134	-2.11182	
135	0.588379	135	-2.16309	
136	0.493164	136	-2.21436	
137	0.429687	137	-2.25586	
138	0.319824	138	-2.28027	
139	0.234375	139	-2.32178	
140	0.119629	140	-2.34619	
141	0.0219727	141	-2.36328	
142	-0.0561523	142	-2.37549	
143	-0.17334	143	-2.38037	
144	-0.268555	144	-2.38281	
145	-0.341797	145	-2.36816	
146	-0.45166	146	-2.3584	
147	-0.537109	147	-2.34375	
148	-0.615234	148	-2.3291	
149	-0.703125	149	-2.29736	
150	-0.766602	150	-2.2583	
151	-0.820312	151	-2.20947	
152	-0.888672	152	-2.16309	
153	-0.932617	153	-2.12402	
154	-0.959473	154	-2.05566	
155	-0.976562	155	-1.99951	
156	-1.00098	156	-1.92627	
157	-1.00586	157	-1.85547	
158	-0.991211	158	-1.77002	
159	-0.979004	159	-1.69189	
160	-0.95459	160	-1.60156	
161	-0.917969	161	-1.521	
162	-0.871582	162	-1.41846	
163	-0.820312	163	-1.32813	
164	-0.751953	164	-1.21826	
165	-0.690918	165	-1.12305	
166	-0.603027	166	-1.00342	
167	-0.517578	167	-0.90332	
168	-0.441895	168	-0.788574	
169	-0.344238	169	-0.67627	
170	-0.249023	170	-0.563965	
171	-0.153809	171	-0.43457	
172	-0.0488281	172	-0.307617	
173	0.0488281	173	-0.192871	
174	0.151367	174	-0.0756836	
175	0.241699	175	0.0390625	
176	0.349121	176	0.15625	
177	0.444336	177	0.285645	
178	0.522461	178	0.412598	
179	0.612793	179	0.529785	
180	0.688477	180	0.644531	
181	0.761719	181	0.759277	
182	0.810547	182	0.866699	
183	0.861816	183	0.986328	
184	0.913086	184	1.08887	
185	0.939941	185	1.20117	
186	0.983887	186	1.30127	
187	0.98877	187	1.40869	
188	0.996094	188	1.49414	
189	1.01074	189	1.58936	
190	0.986328	190	1.67236	
191	0.974121	191	1.76758	
192	0.935059	192	1.84814	
193	0.893555	193	1.92383	
194	0.837402	194	1.98975	
195	0.788574	195	2.06543	
196	0.715332	196	2.11426	
197	0.627441	197	2.17529	
198	0.546875	198	2.22656	
199	0.46875	199	2.27783	
200	0.390625	200	2.31934	
201	0.268555	201	2.34619	
202	0.187988	202	2.36572	
203	0.100098	203	2.39258	
204	-0.0439453	204	2.41211	
205	-0.109863	205	2.41943	
206	-0.224609	206	2.42188	
207	-0.310059	207	2.42676	
208	-0.424805	208	2.41455	
209	-0.50293	209	2.3999	
210	-0.598145	210	2.36816	
211	-0.661621	211	2.35107	
212	-0.737305	212	2.31934	
213	-0.803223	213	2.27783	
214	-0.869141	214	2.23145	
215	-0.908203	215	2.18018	
216	-0.944824	216	2.12891	
217	-0.974121	217	2.07275	
218	-0.996094	218	2.00195	
219	-1.00586	219	1.93115	
220	-1.00586	220	1.85791	
221	-0.991211	221	1.77246	
222	-0.974121	222	1.69678	
223	-0.947266	223	1.59912	
224	-0.900879	224	1.50146	
225	-0.852051	225	1.40625	
226	-0.79834	226	1.31104	
227	-0.72998	227	1.20117	
228	-0.661621	228	1.10352	
229	-0.57373	229	0.986328	
230	-0.493164	230	0.883789	
231	-0.400391	231	0.771484	
232	-0.302734	232	0.65918	
233	-0.212402	233	0.529785	
234	-0.102539	234	0.41748	
235	-0.012207	235	0.290527	
236	0.0927734	236	0.175781	
237	0.187988	237	0.0610352	
238	0.285645	238	-0.0561523	
239	0.375977	239	-0.185547	
240	0.476074	240	-0.300293	
241	0.561523	241	-0.432129	
242	0.639648	242	-0.549316	
243	0.717773	243	-0.661621	
244	0.783691	244	-0.766602	
245	0.837402	245	-0.88623	
246	0.888672	246	-0.98877	
247	0.930176	247	-1.10596	
248	0.959473	248	-1.20361	
249	0.981445	249	-1.30615	
250	0.996094	250	-1.40869	
251	0.996094	251	-1.51123	
252	0.97168	252	-1.5918	
253	0.961914	253	-1.68945	
254	0.949707	254	-1.77002	
255	0.908203	255	-1.85059	
256	0.852051	256	-1.92627	
257	0.795898	257	-1.98975	
258	0.742187	258	-2.05078	
259	0.651855	259	-2.11182	
260	0.59082	260	-2.16309	
261	0.495605	261	-2.2168	
262	0.429687	262	-2.26074	
263	0.317383	263	-2.28027	
264	0.234375	264	-2.32422	
265	0.12207	265	-2.34619	
266	0.0244141	266	-2.36572	
267	-0.0561523	267	-2.37305	
268	-0.17334	268	-2.38037	
269	-0.266113	269	-2.38525	
270	-0.349121	270	-2.37305	
271	-0.449219	271	-2.3584	
272	-0.529785	272	-2.34131	
273	-0.615234	273	-2.3291	
274	-0.695801	274	-2.29736	
275	-0.773926	275	-2.2583	
276	-0.822754	276	-2.20947	
277	-0.888672	277	-2.16553	
278	-0.925293	278	-2.12402	
279	-0.959473	279	-2.05322	
280	-0.979004	280	-1.99463	
281	-1.00342	281	-1.92871	
282	-0.998535	282	-1.85791	
283	-0.993652	283	-1.77002	
284	-0.97168	284	-1.69189	
285	-0.952148	285	-1.60156	
286	-0.917969	286	-1.51855	
287	-0.869141	287	-1.4209	
288	-0.808105	288	-1.32568	
289	-0.754395	289	-1.21582	
290	-0.686035	290	-1.12061	
291	-0.612793	291	-1.00342	
292	-0.527344	292	-0.900879	
293	-0.439453	293	-0.786133	
294	-0.34668	294	-0.67627	
295	-0.251465	295	-0.563965	
296	-0.151367	296	-0.43457	
297	-0.0439453	297	-0.310059	
298	0.0537109	298	-0.195312	
299	0.151367	299	-0.078125	
300	0.253906	300	0.0366211	
301	0.339355	301	0.158691	
302	0.43457	302	0.285645	
303	0.522461	303	0.412598	
304	0.610352	304	0.527344	
305	0.690918	305	0.644531	
306	0.766602	306	0.761719	
307	0.81543	307	0.866699	
308	0.861816	308	0.986328	
309	0.913086	309	1.08643	
310	0.95459	310	1.20361	
311	0.986328	311	1.29883	
312	0.98877	312	1.40625	
313	1.00098	313	1.49414	
314	0.998535	314	1.58936	
315	0.986328	315	1.6748	
316	0.979004	316	1.77002	
317	0.942383	317	1.84814	
318	0.898437	318	1.92383	
319	0.834961	319	1.98975	
320	0.778809	320	2.07031	
321	0.717773	321	2.11182	
322	0.629883	322	2.17285	
323	0.551758	323	2.22656	
324	0.480957	324	2.27783	
325	0.383301	325	2.31689	
326	0.270996	326	2.34375	
327	0.183105	327	2.36816	
328	0.0976562	328	2.39258	
329	-0.0390625	329	2.41211	
330	-0.114746	330	2.41943	
331	-0.229492	331	2.42432	
332	-0.307617	332	2.42432	
333	-0.424805	333	2.41699	
334	-0.50293	334	2.3999	
335	-0.595703	335	2.37061	
336	-0.664062	336	2.35352	
337	-0.737305	337	2.31934	
338	-0.803223	338	2.27783	
339	-0.861816	339	2.23389	
340	-0.908203	340	2.18262	
341	-0.944824	341	2.13135	
342	-0.979004	342	2.0752	
343	-0.991211	343	2.00439	
344	-1.00586	344	1.93359	
345	-1.00586	345	1.86035	
346	-0.993652	346	1.77002	
347	-0.964355	347	1.69434	
348	-0.947266	348	1.59912	
349	-0.898437	349	1.50146	
350	-0.864258	350	1.40625	
351	-0.79834	351	1.31104	
352	-0.739746	352	1.20117	
353	-0.654297	353	1.10107	
354	-0.57373	354	0.983887	
355	-0.493164	355	0.883789	
356	-0.397949	356	0.771484	
357	-0.307617	357	0.65918	
358	-0.214844	358	0.529785	
359	-0.112305	359	0.415039	
360	-0.00488281	360	0.288086	
361	0.090332	361	0.175781	
362	0.187988	362	0.0585937	
363	0.288086	363	-0.0610352	
364	0.383301	364	-0.187988	
365	0.473633	365	-0.302734	
366	0.561523	366	-0.432129	
367	0.639648	367	-0.549316	
368	0.717773	368	-0.664062	
369	0.78125	369	-0.766602	
370	0.830078	370	-0.888672	
371	0.881348	371	-0.991211	
372	0.9375	372	-1.10596	
373	0.957031	373	-1.20361	
374	0.991211	374	-1.30615	
375	0.991211	375	-1.41113	
376	0.993652	376	-1.51123	
377	0.981445	377	-1.5918	
378	0.961914	378	-1.68701	
379	0.952148	379	-1.77002	
380	0.910645	380	-1.84814	
381	0.847168	381	-1.92627	
382	0.793457	382	-1.98975	
383	0.74707	383	-2.05078	
384	0.661621	384	-2.10938	
385	0.593262	385	-2.16309	
386	0.490723	386	-2.21436	
387	0.415039	387	-2.2583	
388	0.319824	388	-2.28271	
389	0.234375	389	-2.32422	
390	0.126953	390	-2.34863	
391	0.0219727	391	-2.36572	
392	-0.0610352	392	-2.37549	
393	-0.168457	393	-2.38281	
394	-0.268555	394	-2.38525	
395	-0.341797	395	-2.37061	
396	-0.456543	396	-2.3584	
397	-0.541992	397	-2.34619	
398	-0.622559	398	-2.32666	
399	-0.693359	399	-2.29492	
400	-0.773926	400	-2.25586	
401	-0.822754	401	-2.20947	
402	-0.891113	402	-2.16309	
403	-0.932617	403	-2.12402	
404	-0.952148	404	-2.05322	
405	-0.974121	405	-1.99463	
406	-0.998535	406	-1.92871	
407	-0.996094	407	-1.85547	
408	-0.991211	408	-1.76758	
409	-0.983887	409	-1.69434	
410	-0.952148	410	-1.604	
411	-0.917969	411	-1.51855	
412	-0.871582	412	-1.41846	
413	-0.817871	413	-1.32568	
414	-0.756836	414	-1.21826	
415	-0.686035	415	-1.12305	
416	-0.605469	416	-1.00342	
417	-0.529785	417	-0.900879	
418	-0.432129	418	-0.788574	
419	-0.341797	419	-0.678711	
420	-0.253906	420	-0.563965	
421	-0.148926	421	-0.43457	
422	-0.0512695	422	-0.310059	
423	0.0439453	423	-0.192871	
424	0.15625	424	-0.078125	
425	0.249023	425	0.0390625	
426	0.34668	426	0.158691	
427	0.454102	427	0.285645	
428	0.532227	428	0.415039	
429	0.615234	429	0.529785	
430	0.693359	430	0.644531	
431	0.759277	431	0.761719	
432	0.81543	432	0.869141	
433	0.871582	433	0.98877	
434	0.915527	434	1.08887	
435	0.952148	435	1.20361	
436	0.983887	436	1.30127	
437	0.98877	437	1.40869	
438	0.996094	438	1.49658	
439	1.00342	439	1.5918	
440	0.98877	440	1.67236	
441	0.969238	441	1.77002	
442	0.942383	442	1.85303	
443	0.90332	443	1.92383	
444	0.837402	444	1.99219	
445	0.791016	445	2.06787	
446	0.710449	446	2.11426	
447	0.627441	447	2.17529	
448	0.539551	448	2.22656	
449	0.473633	449	2.27783	
450	0.383301	450	2.31689	
451	0.273437	451	2.34375	
452	0.197754	452	2.36816	
453	0.0952148	453	2.39014	
454	-0.0463867	454	2.41211	
455	-0.119629	455	2.41943	
456	-0.222168	456	2.42432	
457	-0.3125	457	2.42432	
458	-0.424805	458	2.41455	
459	-0.50293	459	2.3999	
460	-0.598145	460	2.36816	
461	-0.656738	461	2.35352	
462	-0.734863	462	2.31934	
463	-0.803223	463	2.27539	
464	-0.878906	464	2.23145	
465	-0.913086	465	2.18018	
466	-0.939941	466	2.12891	
467	-0.974121	467	2.0752	
468	-0.996094	468	2.00439	
469	-1.00098	469	1.93115	
470	-1.01074	470	1.86035	
471	-0.993652	471	1.77002	
472	-0.979004	472	1.69434	
473	-0.949707	473	1.59668	
474	-0.898437	474	1.50146	
475	-0.852051	475	1.40625	
476	-0.795898	476	1.31104	
477	-0.72998	477	1.20117	
478	-0.65918	478	1.10107	
479	-0.576172	479	0.983887	
480	-0.493164	480	0.883789	
481	-0.402832	481	0.773926	
482	-0.307617	482	0.65918	
483	-0.214844	483	0.529785	
484	-0.10498	484	0.415039	
485	-0.012207	485	0.290527	
486	0.0927734	486	0.17334	
487	0.185547	487	0.0585937	
488	0.288086	488	-0.0585937	
489	0.375977	489	-0.187988	
490	0.478516	490	-0.302734	
491	0.554199	491	-0.432129	
492	0.639648	492	-0.549316	
493	0.717773	493	-0.664062	
494	0.78125	494	-0.769043	
495	0.834961	495	-0.888672	
496	0.88623	496	-0.991211	
497	0.9375	497	-1.10352	
498	0.959473	498	-1.20605	
499	0.981445	499	-1.30859	
