#offset in uscita, sfasamento, prostaferesi, dallóffset s ricava la frequenza di taglio del circuito che confronti con r e c. R 1kOhm, C=100 nF. freq campionamento 100kHz, 800Hz
Time - Plot 0	Amplitude - Plot 0	Time - Plot 1	Amplitude - Plot 1	
0	-0.185547	0	0.100098	
1	-0.0683594	1	-0.0146484	
2	0.0634766	2	-0.131836	
3	0.200195	3	-0.263672	
4	0.32959	4	-0.390625	
5	0.473633	5	-0.507812	
6	0.60791	6	-0.625	
7	0.759277	7	-0.739746	
8	0.883789	8	-0.839844	
9	1.02295	9	-0.961914	
10	1.15967	10	-1.06689	
11	1.28906	11	-1.18408	
12	1.4209	12	-1.2793	
13	1.51123	13	-1.38184	
14	1.62109	14	-1.47461	
15	1.72119	15	-1.56494	
16	1.81396	16	-1.65283	
17	1.88477	17	-1.74805	
18	1.93359	18	-1.82861	
19	1.99707	19	-1.89697	
20	2.0166	20	-1.96777	
21	2.03613	21	-2.04346	
22	2.04102	22	-2.08984	
23	2.0166	23	-2.14844	
24	1.99219	24	-2.19727	
25	1.97021	25	-2.24854	
26	1.92139	26	-2.2876	
27	1.84082	27	-2.31445	
28	1.78467	28	-2.33887	
29	1.69678	29	-2.36328	
30	1.56738	30	-2.38281	
31	1.47949	31	-2.3877	
32	1.35254	32	-2.39258	
33	1.24023	33	-2.39502	
34	1.08887	34	-2.38037	
35	0.969238	35	-2.36572	
36	0.822754	36	-2.33643	
37	0.695801	37	-2.31689	
38	0.549316	38	-2.28271	
39	0.405273	39	-2.24609	
40	0.263672	40	-2.19482	
41	0.136719	41	-2.14355	
42	0.0146484	42	-2.0874	
43	-0.10498	43	-2.03369	
44	-0.227051	44	-1.96045	
45	-0.332031	45	-1.88965	
46	-0.41748	46	-1.81641	
47	-0.507812	47	-1.72607	
48	-0.583496	48	-1.65039	
49	-0.646973	49	-1.55762	
50	-0.693359	50	-1.45996	
51	-0.737305	51	-1.35986	
52	-0.74707	52	-1.26465	
53	-0.744629	53	-1.15234	
54	-0.742187	54	-1.05713	
55	-0.712891	55	-0.9375	
56	-0.683594	56	-0.83252	
57	-0.629883	57	-0.720215	
58	-0.566406	58	-0.60791	
59	-0.498047	59	-0.476074	
60	-0.402832	60	-0.361328	
61	-0.305176	61	-0.239258	
62	-0.200195	62	-0.119629	
63	-0.090332	63	-0.00488281	
64	0.0390625	64	0.112305	
65	0.170898	65	0.244141	
66	0.307617	66	0.358887	
67	0.444336	67	0.488281	
68	0.588379	68	0.60791	
69	0.734863	69	0.725098	
70	0.876465	70	0.822754	
71	1.01318	71	0.944824	
72	1.14502	72	1.05225	
73	1.2793	73	1.16455	
74	1.40625	74	1.26465	
75	1.521	75	1.3623	
76	1.62598	76	1.46729	
77	1.72852	77	1.56982	
78	1.80176	78	1.65527	
79	1.88477	79	1.75049	
80	1.96289	80	1.83105	
81	2.00928	81	1.90918	
82	2.03613	82	1.98242	
83	2.06543	83	2.05078	
84	2.08008	84	2.10938	
85	2.06787	85	2.17041	
86	2.05322	86	2.21436	
87	2.00928	87	2.27295	
88	1.97998	88	2.31445	
89	1.90186	89	2.33887	
90	1.85059	90	2.37793	
91	1.75781	91	2.40479	
92	1.65527	92	2.41455	
93	1.56738	93	2.4292	
94	1.43555	94	2.4292	
95	1.3208	95	2.43896	
96	1.20361	96	2.42188	
97	1.05225	97	2.40723	
98	0.913086	98	2.39258	
99	0.78125	99	2.37549	
100	0.622559	100	2.34131	
101	0.478516	101	2.30713	
102	0.344238	102	2.25342	
103	0.192871	103	2.20703	
104	0.0708008	104	2.16309	
105	-0.0610352	105	2.09473	
106	-0.170898	106	2.03857	
107	-0.29541	107	1.96533	
108	-0.390625	108	1.88965	
109	-0.483398	109	1.8042	
110	-0.568848	110	1.72852	
111	-0.629883	111	1.6333	
112	-0.688477	112	1.55762	
113	-0.727539	113	1.4502	
114	-0.759277	114	1.35742	
115	-0.771484	115	1.24756	
116	-0.783691	116	1.1499	
117	-0.759277	117	1.0376	
118	-0.739746	118	0.927734	
119	-0.698242	119	0.81543	
120	-0.64209	120	0.700684	
121	-0.566406	121	0.588379	
122	-0.493164	122	0.458984	
123	-0.388184	123	0.336914	
124	-0.300293	124	0.217285	
125	-0.187988	125	0.102539	
126	-0.0610352	126	-0.0146484	
127	0.0610352	127	-0.131836	
128	0.205078	128	-0.26123	
129	0.332031	129	-0.388184	
130	0.46875	130	-0.507812	
131	0.610352	131	-0.622559	
132	0.754395	132	-0.739746	
133	0.883789	133	-0.842285	
134	1.02051	134	-0.961914	
135	1.16455	135	-1.06689	
136	1.28906	136	-1.1792	
137	1.41602	137	-1.2793	
138	1.51123	138	-1.37939	
139	1.63086	139	-1.47217	
140	1.72607	140	-1.56494	
141	1.81396	141	-1.65039	
142	1.88721	142	-1.74561	
143	1.94824	143	-1.82861	
144	1.99707	144	-1.89697	
145	2.0166	145	-1.96777	
146	2.04102	146	-2.0459	
147	2.0459	147	-2.0874	
148	2.01904	148	-2.14844	
149	1.99707	149	-2.19482	
150	1.97021	150	-2.24854	
151	1.9165	151	-2.2876	
152	1.85059	152	-2.31445	
153	1.78223	153	-2.33643	
154	1.69434	154	-2.36084	
155	1.55518	155	-2.38525	
156	1.48682	156	-2.3877	
157	1.35498	157	-2.39258	
158	1.23779	158	-2.39502	
159	1.08398	159	-2.38037	
160	0.974121	160	-2.36572	
161	0.817871	161	-2.33643	
162	0.690918	162	-2.31689	
163	0.549316	163	-2.28027	
164	0.412598	164	-2.24609	
165	0.263672	165	-2.19482	
166	0.144043	166	-2.14355	
167	0.0170898	167	-2.0874	
168	-0.109863	168	-2.03369	
169	-0.219727	169	-1.96045	
170	-0.327148	170	-1.88965	
171	-0.427246	171	-1.81396	
172	-0.510254	172	-1.72363	
173	-0.576172	173	-1.65039	
174	-0.646973	174	-1.55762	
175	-0.683594	175	-1.45752	
176	-0.72998	176	-1.35986	
177	-0.742187	177	-1.26221	
178	-0.74707	178	-1.1499	
179	-0.739746	179	-1.05469	
180	-0.712891	180	-0.935059	
181	-0.678711	181	-0.830078	
182	-0.625	182	-0.720215	
183	-0.563965	183	-0.605469	
184	-0.490723	184	-0.476074	
185	-0.402832	185	-0.358887	
186	-0.305176	186	-0.236816	
187	-0.197754	187	-0.119629	
188	-0.0830078	188	-0.00244141	
189	0.0366211	189	0.114746	
190	0.168457	190	0.246582	
191	0.310059	191	0.358887	
192	0.446777	192	0.488281	
193	0.583496	193	0.605469	
194	0.732422	194	0.722656	
195	0.881348	195	0.820312	
196	1.0083	196	0.944824	
197	1.1377	197	1.0498	
198	1.26953	198	1.16455	
199	1.39893	199	1.26465	
200	1.51611	200	1.3623	
201	1.62842	201	1.46484	
202	1.72119	202	1.56738	
203	1.80176	203	1.65283	
204	1.87744	204	1.74805	
205	1.96045	205	1.82861	
206	2.0166	206	1.90918	
207	2.03857	207	1.97998	
208	2.05811	208	2.04834	
209	2.08496	209	2.10938	
210	2.06543	210	2.17041	
211	2.04346	211	2.21436	
212	2.00928	212	2.27051	
213	1.98242	213	2.31445	
214	1.90674	214	2.33887	
215	1.84326	215	2.37793	
216	1.75293	216	2.3999	
217	1.6626	217	2.41455	
218	1.5625	218	2.42676	
219	1.44043	219	2.43408	
220	1.31836	220	2.43652	
221	1.20361	221	2.42188	
222	1.05225	222	2.40723	
223	0.92041	223	2.39014	
224	0.786133	224	2.37305	
225	0.629883	225	2.33887	
226	0.483398	226	2.30713	
227	0.341797	227	2.25342	
228	0.197754	228	2.20947	
229	0.0585937	229	2.16797	
230	-0.0610352	230	2.09473	
231	-0.17334	231	2.03857	
232	-0.300293	232	1.96533	
233	-0.388184	233	1.89453	
234	-0.48584	234	1.8042	
235	-0.571289	235	1.72852	
236	-0.639648	236	1.63574	
237	-0.686035	237	1.55762	
238	-0.737305	238	1.4502	
239	-0.754395	239	1.35742	
240	-0.776367	240	1.24756	
241	-0.776367	241	1.15234	
242	-0.756836	242	1.0376	
243	-0.72998	243	0.927734	
244	-0.693359	244	0.81543	
245	-0.637207	245	0.700684	
246	-0.571289	246	0.588379	
247	-0.48584	247	0.458984	
248	-0.393066	248	0.336914	
249	-0.29541	249	0.219727	
250	-0.178223	250	0.100098	
251	-0.065918	251	-0.0146484	
252	0.065918	252	-0.129395	
253	0.197754	253	-0.26123	
254	0.332031	254	-0.388184	
255	0.478516	255	-0.507812	
256	0.610352	256	-0.622559	
257	0.761719	257	-0.742187	
258	0.891113	258	-0.839844	
259	1.01807	259	-0.964355	
260	1.16211	260	-1.06689	
261	1.28662	261	-1.18164	
262	1.41846	262	-1.2793	
263	1.521	263	-1.38184	
264	1.62598	264	-1.47705	
265	1.72363	265	-1.56738	
266	1.81152	266	-1.65039	
267	1.88477	267	-1.74805	
268	1.94092	268	-1.82861	
269	1.99707	269	-1.89453	
270	2.01416	270	-1.96533	
271	2.0459	271	-2.04346	
272	2.04346	272	-2.08984	
273	2.02148	273	-2.146	
274	1.99707	274	-2.19482	
275	1.96777	275	-2.25098	
276	1.9165	276	-2.29004	
277	1.84326	277	-2.31445	
278	1.78223	278	-2.33643	
279	1.69922	279	-2.36084	
280	1.5625	280	-2.38525	
281	1.48438	281	-2.38525	
282	1.35986	282	-2.39014	
283	1.24023	283	-2.39258	
284	1.08887	284	-2.38037	
285	0.97168	285	-2.36328	
286	0.822754	286	-2.33398	
287	0.683594	287	-2.31689	
288	0.551758	288	-2.28271	
289	0.415039	289	-2.24365	
290	0.266113	290	-2.19238	
291	0.144043	291	-2.14111	
292	0.0170898	292	-2.0874	
293	-0.102539	293	-2.03613	
294	-0.224609	294	-1.96289	
295	-0.322266	295	-1.88965	
296	-0.424805	296	-1.81396	
297	-0.515137	297	-1.72363	
298	-0.578613	298	-1.65039	
299	-0.64209	299	-1.55762	
300	-0.683594	300	-1.45752	
301	-0.732422	301	-1.3623	
302	-0.744629	302	-1.26465	
303	-0.749512	303	-1.1499	
304	-0.742187	304	-1.05713	
305	-0.712891	305	-0.9375	
306	-0.67627	306	-0.83252	
307	-0.629883	307	-0.720215	
308	-0.568848	308	-0.605469	
309	-0.488281	309	-0.473633	
310	-0.405273	310	-0.361328	
311	-0.307617	311	-0.236816	
312	-0.195312	312	-0.119629	
313	-0.090332	313	-0.00244141	
314	0.0366211	314	0.114746	
315	0.17334	315	0.246582	
316	0.322266	316	0.361328	
317	0.444336	317	0.488281	
318	0.588379	318	0.605469	
319	0.72998	319	0.722656	
320	0.874023	320	0.820312	
321	1.0083	321	0.944824	
322	1.14258	322	1.05225	
323	1.28174	323	1.16211	
324	1.40381	324	1.26221	
325	1.51855	325	1.3623	
326	1.61865	326	1.4624	
327	1.72363	327	1.56738	
328	1.80176	328	1.65283	
329	1.88477	329	1.75049	
330	1.95801	330	1.82861	
331	2.0166	331	1.90674	
332	2.02881	332	1.98242	
333	2.06055	333	2.04834	
334	2.07764	334	2.10938	
335	2.06055	335	2.17041	
336	2.05322	336	2.21436	
337	2.00684	337	2.27295	
338	1.97754	338	2.31445	
339	1.90186	339	2.33643	
340	1.84082	340	2.37793	
341	1.75049	341	2.3999	
342	1.66016	342	2.41699	
343	1.56738	343	2.42676	
344	1.43799	344	2.43164	
345	1.3208	345	2.43652	
346	1.20361	346	2.42188	
347	1.05469	347	2.40479	
348	0.908203	348	2.39014	
349	0.78125	349	2.37549	
350	0.632324	350	2.34131	
351	0.480957	351	2.30713	
352	0.341797	352	2.25342	
353	0.197754	353	2.20703	
354	0.0610352	354	2.16553	
355	-0.0634766	355	2.09473	
356	-0.183105	356	2.03613	
357	-0.29541	357	1.96533	
358	-0.393066	358	1.89453	
359	-0.483398	359	1.8042	
360	-0.563965	360	1.72607	
361	-0.637207	361	1.63574	
362	-0.688477	362	1.55762	
363	-0.732422	363	1.4502	
364	-0.769043	364	1.35742	
365	-0.776367	365	1.24756	
366	-0.773926	366	1.15234	
367	-0.76416	367	1.0376	
368	-0.732422	368	0.927734	
369	-0.693359	369	0.81543	
370	-0.644531	370	0.703125	
371	-0.559082	371	0.59082	
372	-0.490723	372	0.458984	
373	-0.395508	373	0.336914	
374	-0.29541	374	0.219727	
375	-0.185547	375	0.100098	
376	-0.0708008	376	-0.012207	
377	0.0634766	377	-0.129395	
378	0.195312	378	-0.263672	
379	0.324707	379	-0.388184	
380	0.473633	380	-0.507812	
381	0.612793	381	-0.625	
382	0.759277	382	-0.737305	
383	0.883789	383	-0.842285	
384	1.01807	384	-0.961914	
385	1.15967	385	-1.06689	
386	1.28906	386	-1.18164	
387	1.41357	387	-1.2793	
388	1.52832	388	-1.37939	
389	1.62842	389	-1.47705	
390	1.73096	390	-1.56982	
391	1.8042	391	-1.65039	
392	1.88721	392	-1.74561	
393	1.94824	393	-1.82617	
394	1.99463	394	-1.89697	
395	2.00928	395	-1.96777	
396	2.04834	396	-2.04346	
397	2.05322	397	-2.0874	
398	2.01904	398	-2.15088	
399	1.99463	399	-2.19727	
400	1.97021	400	-2.25098	
401	1.92139	401	-2.29004	
402	1.83838	402	-2.31445	
403	1.7749	403	-2.33887	
404	1.69678	404	-2.36084	
405	1.5625	405	-2.38281	
406	1.48438	406	-2.3877	
407	1.35986	407	-2.39014	
408	1.24512	408	-2.39502	
409	1.09131	409	-2.38281	
410	0.969238	410	-2.36572	
411	0.822754	411	-2.33643	
412	0.695801	412	-2.31689	
413	0.554199	413	-2.28271	
414	0.407715	414	-2.24365	
415	0.270996	415	-2.19482	
416	0.141602	416	-2.14111	
417	0.0244141	417	-2.0874	
418	-0.107422	418	-2.03369	
419	-0.224609	419	-1.96289	
420	-0.324707	420	-1.88965	
421	-0.432129	421	-1.81641	
422	-0.505371	422	-1.72607	
423	-0.576172	423	-1.65039	
424	-0.639648	424	-1.55762	
425	-0.693359	425	-1.45996	
426	-0.734863	426	-1.35986	
427	-0.744629	427	-1.26221	
428	-0.744629	428	-1.15234	
429	-0.739746	429	-1.05469	
430	-0.715332	430	-0.939941	
431	-0.678711	431	-0.830078	
432	-0.629883	432	-0.720215	
433	-0.571289	433	-0.605469	
434	-0.495605	434	-0.476074	
435	-0.407715	435	-0.361328	
436	-0.305176	436	-0.236816	
437	-0.192871	437	-0.119629	
438	-0.0878906	438	-0.00244141	
439	0.0341797	439	0.114746	
440	0.170898	440	0.244141	
441	0.310059	441	0.358887	
442	0.437012	442	0.488281	
443	0.59082	443	0.60791	
444	0.732422	444	0.722656	
445	0.881348	445	0.822754	
446	1.00586	446	0.944824	
447	1.13281	447	1.0498	
448	1.2793	448	1.16455	
449	1.39893	449	1.26465	
450	1.51611	450	1.3623	
451	1.62354	451	1.46484	
452	1.7334	452	1.56982	
453	1.80664	453	1.65283	
454	1.88965	454	1.74805	
455	1.96533	455	1.83105	
456	2.01416	456	1.90918	
457	2.03613	457	1.97998	
458	2.06299	458	2.04834	
459	2.08008	459	2.10938	
460	2.06299	460	2.17041	
461	2.05078	461	2.21436	
462	2.00928	462	2.27051	
463	1.97754	463	2.31445	
464	1.9043	464	2.33643	
465	1.84814	465	2.37793	
466	1.75293	466	2.3999	
467	1.65527	467	2.41455	
468	1.56982	468	2.4292	
469	1.43555	469	2.43164	
470	1.31592	470	2.43652	
471	1.21094	471	2.42188	
472	1.06201	472	2.40723	
473	0.917969	473	2.39258	
474	0.788574	474	2.37549	
475	0.627441	475	2.34375	
476	0.48584	476	2.30713	
477	0.341797	477	2.25586	
478	0.197754	478	2.20703	
479	0.0708008	479	2.16553	
480	-0.0537109	480	2.09473	
481	-0.178223	481	2.04102	
482	-0.29541	482	1.96777	
483	-0.390625	483	1.89453	
484	-0.48584	484	1.8042	
485	-0.563965	485	1.72852	
486	-0.639648	486	1.63574	
487	-0.688477	487	1.55762	
488	-0.737305	488	1.4502	
489	-0.756836	489	1.35742	
490	-0.78125	490	1.24756	
491	-0.783691	491	1.15234	
492	-0.761719	492	1.0376	
493	-0.739746	493	0.927734	
494	-0.688477	494	0.81543	
495	-0.644531	495	0.703125	
496	-0.568848	496	0.59082	
497	-0.48584	497	0.458984	
498	-0.395508	498	0.336914	
499	-0.292969	499	0.217285	
